#          \hbar \omega(eV)    Oscillator strength
       0.000000000000000E+00  -.000000000000000E+00
       0.100000000000000E-01  0.172928485809305E-04
       0.200000000000000E-01  0.691756442929212E-04
       0.300000000000000E-01  0.155661139379779E-03
       0.400000000000000E-01  0.276770595370816E-03
       0.500000000000000E-01  0.432533794773263E-03
       0.600000000000000E-01  0.622989057457551E-03
       0.700000000000000E-01  0.848183261751427E-03
       0.800000000000000E-01  0.110817187026344E-02
       0.900000000000000E-01  0.140301896046099E-02
       0.100000000000000E+00  0.173279726003272E-02
       0.110000000000000E+00  0.209758818706990E-02
       0.120000000000000E+00  0.249748189510608E-02
       0.130000000000000E+00  0.293257732305905E-02
       0.140000000000000E+00  0.340298225012441E-02
       0.150000000000000E+00  0.390881335567441E-02
       0.160000000000000E+00  0.445019628422158E-02
       0.170000000000000E+00  0.502726571551074E-02
       0.180000000000000E+00  0.564016543980948E-02
       0.190000000000000E+00  0.628904843847150E-02
       0.200000000000000E+00  0.697407696985323E-02
       0.210000000000000E+00  0.769542266066953E-02
       0.220000000000000E+00  0.845326660288011E-02
       0.230000000000000E+00  0.924779945620431E-02
       0.240000000000000E+00  0.100792215563671E-01
       0.250000000000000E+00  0.109477430291870E-01
       0.260000000000000E+00  0.118535839106211E-01
       0.270000000000000E+00  0.127969742728901E-01
       0.280000000000000E+00  0.137781543568130E-01
       0.290000000000000E+00  0.147973747104872E-01
       0.300000000000000E+00  0.158548963344582E-01
       0.310000000000000E+00  0.169509908335292E-01
       0.320000000000000E+00  0.180859405753696E-01
       0.330000000000000E+00  0.192600388560887E-01
       0.340000000000000E+00  0.204735900729496E-01
       0.350000000000000E+00  0.217269099044072E-01
       0.360000000000000E+00  0.230203254976595E-01
       0.370000000000000E+00  0.243541756639177E-01
       0.380000000000000E+00  0.257288110816025E-01
       0.390000000000000E+00  0.271445945076886E-01
       0.400000000000000E+00  0.286019009974272E-01
       0.410000000000000E+00  0.301011181326893E-01
       0.420000000000000E+00  0.316426462591811E-01
       0.430000000000000E+00  0.332268987327959E-01
       0.440000000000000E+00  0.348543021753777E-01
       0.450000000000000E+00  0.365252967401868E-01
       0.460000000000000E+00  0.382403363873674E-01
       0.470000000000000E+00  0.399998891697301E-01
       0.480000000000000E+00  0.418044375291851E-01
       0.490000000000000E+00  0.436544786041605E-01
       0.500000000000000E+00  0.455505245483742E-01
       0.510000000000000E+00  0.474931028613275E-01
       0.520000000000000E+00  0.494827567309162E-01
       0.530000000000000E+00  0.515200453885684E-01
       0.540000000000000E+00  0.536055444773362E-01
       0.550000000000000E+00  0.557398464333886E-01
       0.560000000000000E+00  0.579235608813714E-01
       0.570000000000000E+00  0.601573150441264E-01
       0.580000000000000E+00  0.624417541672743E-01
       0.590000000000000E+00  0.647775419591983E-01
       0.600000000000000E+00  0.671653610469842E-01
       0.610000000000000E+00  0.696059134488994E-01
       0.620000000000000E+00  0.720999210640192E-01
       0.630000000000000E+00  0.746481261796381E-01
       0.640000000000000E+00  0.772512919971296E-01
       0.650000000000000E+00  0.799102031769536E-01
       0.660000000000000E+00  0.826256664035369E-01
       0.670000000000000E+00  0.853985109707897E-01
       0.680000000000000E+00  0.882295893890530E-01
       0.690000000000000E+00  0.911197780143183E-01
       0.700000000000000E+00  0.940699777005798E-01
       0.710000000000000E+00  0.970811144762489E-01
       0.720000000000000E+00  0.100154140245573E+00
       0.730000000000000E+00  0.103290033516074E+00
       0.740000000000000E+00  0.106489800153043E+00
       0.750000000000000E+00  0.109754474162212E+00
       0.760000000000000E+00  0.113085118501727E+00
       0.770000000000000E+00  0.116482825924661E+00
       0.780000000000000E+00  0.119948719853317E+00
       0.790000000000000E+00  0.123483955286647E+00
       0.800000000000000E+00  0.127089719742198E+00
       0.810000000000000E+00  0.130767234234033E+00
       0.820000000000001E+00  0.134517754288168E+00
       0.830000000000001E+00  0.138342570997140E+00
       0.840000000000001E+00  0.142243012115395E+00
       0.850000000000001E+00  0.146220443197266E+00
       0.860000000000001E+00  0.150276268779431E+00
       0.870000000000001E+00  0.154411933609792E+00
       0.880000000000001E+00  0.158628923924847E+00
       0.890000000000001E+00  0.162928768777730E+00
       0.900000000000001E+00  0.167313041419193E+00
       0.910000000000001E+00  0.171783360733938E+00
       0.920000000000001E+00  0.176341392734819E+00
       0.930000000000001E+00  0.180988852117594E+00
       0.940000000000001E+00  0.185727503878995E+00
       0.950000000000001E+00  0.190559165001116E+00
       0.960000000000001E+00  0.195485706205177E+00
       0.970000000000001E+00  0.200509053777994E+00
       0.980000000000001E+00  0.205631191474583E+00
       0.990000000000001E+00  0.210854162500546E+00
       0.100000000000000E+01  0.216180071578122E+00
       0.101000000000000E+01  0.221611087099915E+00
       0.102000000000000E+01  0.227149443374650E+00
       0.103000000000000E+01  0.232797442969442E+00
       0.104000000000000E+01  0.238557459153398E+00
       0.105000000000000E+01  0.244431938447609E+00
       0.106000000000000E+01  0.250423403286893E+00
       0.107000000000000E+01  0.256534454798957E+00
       0.108000000000000E+01  0.262767775706967E+00
       0.109000000000000E+01  0.269126133361895E+00
       0.110000000000000E+01  0.275612382911366E+00
       0.111000000000000E+01  0.282229470612135E+00
       0.112000000000000E+01  0.288980437293736E+00
       0.113000000000000E+01  0.295868421981379E+00
       0.114000000000000E+01  0.302896665686524E+00
       0.115000000000000E+01  0.310068515374202E+00
       0.116000000000000E+01  0.317387428116725E+00
       0.117000000000000E+01  0.324856975443857E+00
       0.118000000000000E+01  0.332480847900404E+00
       0.119000000000000E+01  0.340262859822652E+00
       0.120000000000000E+01  0.348206954345979E+00
       0.121000000000000E+01  0.356317208656636E+00
       0.122000000000000E+01  0.364597839501626E+00
       0.123000000000000E+01  0.373053208971495E+00
       0.124000000000000E+01  0.381687830571804E+00
       0.125000000000000E+01  0.390506375600146E+00
       0.126000000000000E+01  0.399513679846677E+00
       0.127000000000000E+01  0.408714750637339E+00
       0.128000000000000E+01  0.418114774240342E+00
       0.129000000000000E+01  0.427719123657753E+00
       0.130000000000000E+01  0.437533366825709E+00
       0.131000000000000E+01  0.447563275248343E+00
       0.132000000000000E+01  0.457814833092272E+00
       0.133000000000000E+01  0.468294246770513E+00
       0.134000000000000E+01  0.479007955046664E+00
       0.135000000000000E+01  0.489962639692494E+00
       0.136000000000000E+01  0.501165236734594E+00
       0.137000000000000E+01  0.512622948328174E+00
       0.138000000000000E+01  0.524343255299240E+00
       0.139000000000000E+01  0.536333930399248E+00
       0.140000000000000E+01  0.548603052319873E+00
       0.141000000000000E+01  0.561159020519127E+00
       0.142000000000000E+01  0.574010570914075E+00
       0.143000000000000E+01  0.587166792499801E+00
       0.144000000000000E+01  0.600637144958914E+00
       0.145000000000000E+01  0.614431477331190E+00
       0.146000000000000E+01  0.628560047818525E+00
       0.147000000000000E+01  0.643033544806507E+00
       0.148000000000000E+01  0.657863109190825E+00
       0.149000000000000E+01  0.673060358103944E+00
       0.150000000000000E+01  0.688637410145718E+00
       0.151000000000000E+01  0.704606912230446E+00
       0.152000000000000E+01  0.720982068172613E+00
       0.153000000000000E+01  0.737776669144422E+00
       0.154000000000000E+01  0.755005126149773E+00
       0.155000000000000E+01  0.772682504672681E+00
       0.156000000000000E+01  0.790824561672154E+00
       0.157000000000000E+01  0.809447785111578E+00
       0.158000000000000E+01  0.828569436228107E+00
       0.159000000000000E+01  0.848207594766804E+00
       0.160000000000000E+01  0.868381207425901E+00
       0.161000000000000E+01  0.889110139783128E+00
       0.162000000000000E+01  0.910415231999652E+00
       0.163000000000000E+01  0.932318358627276E+00
       0.164000000000000E+01  0.954842492877619E+00
       0.165000000000000E+01  0.978011775747847E+00
       0.166000000000000E+01  0.100185159043888E+01
       0.167000000000000E+01  0.102638864254680E+01
       0.168000000000000E+01  0.105165104655968E+01
       0.169000000000000E+01  0.107766841924848E+01
       0.170000000000000E+01  0.110447198060541E+01
       0.171000000000000E+01  0.113209466305444E+01
       0.172000000000000E+01  0.116057122974055E+01
       0.173000000000000E+01  0.118993840279505E+01
       0.174000000000000E+01  0.122023500257846E+01
       0.175000000000000E+01  0.125150209901878E+01
       0.176000000000000E+01  0.128378317629642E+01
       0.177000000000000E+01  0.131712431227708E+01
       0.178000000000000E+01  0.135157437426612E+01
       0.179000000000000E+01  0.138718523285296E+01
       0.180000000000000E+01  0.142401199583793E+01
       0.181000000000000E+01  0.146211326448929E+01
       0.182000000000000E+01  0.150155141467187E+01
       0.183000000000000E+01  0.154239290572531E+01
       0.184000000000000E+01  0.158470862035873E+01
       0.185000000000000E+01  0.162857423927603E+01
       0.186000000000000E+01  0.167407065476525E+01
       0.187000000000000E+01  0.172128442808568E+01
       0.188000000000000E+01  0.177030829618597E+01
       0.189000000000000E+01  0.182124173410038E+01
       0.190000000000000E+01  0.187419158032105E+01
       0.191000000000000E+01  0.192927273355894E+01
       0.192000000000000E+01  0.198660893061344E+01
       0.193000000000000E+01  0.204633361661135E+01
       0.194000000000000E+01  0.210859092069520E+01
       0.195000000000000E+01  0.217353675239407E+01
       0.196000000000000E+01  0.224134003646979E+01
       0.197000000000000E+01  0.231218410707918E+01
       0.198000000000000E+01  0.238626828573689E+01
       0.199000000000000E+01  0.246380967193116E+01
       0.200000000000000E+01  0.254504518050193E+01
       0.201000000000000E+01  0.263023386623218E+01
       0.202000000000000E+01  0.271965958379027E+01
       0.203000000000000E+01  0.281363404049930E+01
       0.204000000000000E+01  0.291250031080845E+01
       0.205000000000000E+01  0.301663689529527E+01
       0.206000000000000E+01  0.312646242418398E+01
       0.207000000000000E+01  0.324244112653424E+01
       0.208000000000000E+01  0.336508921247696E+01
       0.209000000000000E+01  0.349498234849035E+01
       0.210000000000000E+01  0.363276444642714E+01
       0.211000000000000E+01  0.377915803805030E+01
       0.212000000000000E+01  0.393497657105901E+01
       0.213000000000000E+01  0.410113904371158E+01
       0.214000000000000E+01  0.427868749797479E+01
       0.215000000000000E+01  0.446880802188269E+01
       0.216000000000000E+01  0.467285607853138E+01
       0.217000000000000E+01  0.489238719223542E+01
       0.218000000000000E+01  0.512919429505765E+01
       0.219000000000000E+01  0.538535338585816E+01
       0.220000000000000E+01  0.566327959961226E+01
       0.221000000000000E+01  0.596579635109364E+01
       0.222000000000000E+01  0.629622093020200E+01
       0.223000000000000E+01  0.665847080988906E+01
       0.224000000000000E+01  0.705719599206666E+01
       0.225000000000000E+01  0.749794393543805E+01
       0.226000000000000E+01  0.798736486940034E+01
       0.227000000000000E+01  0.853346630378099E+01
       0.228000000000000E+01  0.914592562290874E+01
       0.229000000000000E+01  0.983646738819344E+01
       0.229999999999999E+01  0.106193045197604E+02
       0.230999999999999E+01  0.115116243830201E+02
       0.231999999999999E+01  0.125340617756421E+02
       0.232999999999999E+01  0.137110230925999E+02
       0.233999999999999E+01  0.150705814665931E+02
       0.234999999999999E+01  0.166434159302998E+02
       0.235999999999999E+01  0.184599003469053E+02
       0.236999999999999E+01  0.205440431330501E+02
       0.237999999999999E+01  0.229029161477917E+02
       0.238999999999999E+01  0.255114199884890E+02
       0.239999999999999E+01  0.282959665570556E+02
       0.240999999999999E+01  0.311264768150654E+02
       0.241999999999999E+01  0.338282079864684E+02
       0.242999999999999E+01  0.362147787075386E+02
       0.243999999999999E+01  0.381273138029628E+02
       0.244999999999999E+01  0.394666315329224E+02
       0.245999999999999E+01  0.402238106966322E+02
       0.246999999999999E+01  0.405068970231792E+02
       0.247999999999999E+01  0.405336072394339E+02
       0.248999999999999E+01  0.405734270816990E+02
       0.249999999999999E+01  0.408690766629624E+02
       0.250999999999999E+01  0.415775793452508E+02
       0.251999999999999E+01  0.427405252710685E+02
       0.252999999999999E+01  0.442711296526345E+02
       0.253999999999999E+01  0.459539027278678E+02
       0.254999999999999E+01  0.474754590881143E+02
       0.255999999999999E+01  0.485113511083986E+02
       0.256999999999999E+01  0.488559397756718E+02
       0.257999999999999E+01  0.485206744509663E+02
       0.258999999999999E+01  0.477244505783926E+02
       0.259999999999999E+01  0.467875539572807E+02
       0.260999999999999E+01  0.460149203438195E+02
       0.261999999999999E+01  0.456339849073757E+02
       0.262999999999999E+01  0.457900353109675E+02
       0.263999999999999E+01  0.465705377260351E+02
       0.264999999999999E+01  0.480340995217700E+02
       0.265999999999999E+01  0.502336078558271E+02
       0.266999999999999E+01  0.532321820232136E+02
       0.267999999999999E+01  0.571138483947184E+02
       0.268999999999999E+01  0.619910468669937E+02
       0.269999999999999E+01  0.680101910075078E+02
       0.270999999999999E+01  0.753552521518928E+02
       0.271999999999999E+01  0.842476889587003E+02
       0.272999999999999E+01  0.949386036454647E+02
       0.273999999999999E+01  0.107685283745388E+03
       0.274999999999999E+01  0.122699227790326E+03
       0.275999999999999E+01  0.140048210415893E+03
       0.276999999999998E+01  0.159497842533194E+03
       0.277999999999998E+01  0.180303928543539E+03
       0.278999999999998E+01  0.201034068365694E+03
       0.279999999999998E+01  0.219591033677580E+03
       0.280999999999998E+01  0.233626386277326E+03
       0.281999999999998E+01  0.241318214926120E+03
       0.282999999999998E+01  0.242107980275497E+03
       0.283999999999998E+01  0.236863887315272E+03
       0.284999999999998E+01  0.227325401138173E+03
       0.285999999999998E+01  0.215230975797468E+03
       0.286999999999998E+01  0.201707993413385E+03
       0.287999999999998E+01  0.187224732344183E+03
       0.288999999999998E+01  0.171970001453198E+03
       0.289999999999998E+01  0.156260201476183E+03
       0.290999999999998E+01  0.140656145959633E+03
       0.291999999999998E+01  0.125800940121501E+03
       0.292999999999998E+01  0.112207011662971E+03
       0.293999999999998E+01  0.100156562471288E+03
       0.294999999999998E+01  0.897204016117921E+02
       0.295999999999998E+01  0.808285559696891E+02
       0.296999999999998E+01  0.733399269895534E+02
       0.297999999999998E+01  0.670911567505633E+02
       0.298999999999998E+01  0.619246881980340E+02
       0.299999999999998E+01  0.577022751627693E+02
       0.300999999999998E+01  0.543100243232344E+02
       0.301999999999998E+01  0.516591790108809E+02
       0.302999999999998E+01  0.496851372596963E+02
       0.303999999999998E+01  0.483460283175880E+02
       0.304999999999998E+01  0.476214578082116E+02
       0.305999999999998E+01  0.475115839482866E+02
       0.306999999999998E+01  0.480363322376912E+02
       0.307999999999998E+01  0.492341361296868E+02
       0.308999999999998E+01  0.511589411688238E+02
       0.309999999999998E+01  0.538731563371320E+02
       0.310999999999998E+01  0.574326937603124E+02
       0.311999999999998E+01  0.618585726701069E+02
       0.312999999999998E+01  0.670894747196765E+02
       0.313999999999998E+01  0.729154400822795E+02
       0.314999999999998E+01  0.789110059543611E+02
       0.315999999999998E+01  0.844164044706270E+02
       0.316999999999998E+01  0.886318639228677E+02
       0.317999999999998E+01  0.908412781105267E+02
       0.318999999999998E+01  0.906675832315518E+02
       0.319999999999998E+01  0.882042180571882E+02
       0.320999999999998E+01  0.839570003664656E+02
       0.321999999999998E+01  0.786584065065377E+02
       0.322999999999998E+01  0.730566627921781E+02
       0.323999999999997E+01  0.677607010581286E+02
       0.324999999999997E+01  0.631782408246453E+02
       0.325999999999997E+01  0.595316349376751E+02
       0.326999999999997E+01  0.569072872021516E+02
       0.327999999999997E+01  0.553002643030732E+02
       0.328999999999997E+01  0.546349195734744E+02
       0.329999999999997E+01  0.547577221932382E+02
       0.330999999999997E+01  0.554103048672782E+02
       0.331999999999997E+01  0.562065214558201E+02
       0.332999999999997E+01  0.566559347536076E+02
       0.333999999999997E+01  0.562727378264813E+02
       0.334999999999997E+01  0.547492507170572E+02
       0.335999999999997E+01  0.520856880261555E+02
       0.336999999999997E+01  0.485688950158036E+02
       0.337999999999997E+01  0.446185852124345E+02
       0.338999999999997E+01  0.406220859218897E+02
       0.339999999999997E+01  0.368472672530785E+02
       0.340999999999997E+01  0.334356742720527E+02
       0.341999999999997E+01  0.304350437305038E+02
       0.342999999999997E+01  0.278371200425770E+02
       0.343999999999997E+01  0.256062994521488E+02
       0.344999999999997E+01  0.236972926853322E+02
       0.345999999999997E+01  0.220645386002664E+02
       0.346999999999997E+01  0.206665110850261E+02
       0.347999999999997E+01  0.194672206130663E+02
       0.348999999999997E+01  0.184363237090585E+02
       0.349999999999997E+01  0.175486247974035E+02
       0.350999999999997E+01  0.167833739861722E+02
       0.351999999999997E+01  0.161235525923408E+02
       0.352999999999997E+01  0.155552273750984E+02
       0.353999999999997E+01  0.150669995498698E+02
       0.354999999999997E+01  0.146495493059675E+02
       0.355999999999997E+01  0.142952661769920E+02
       0.356999999999997E+01  0.139979524908598E+02
       0.357999999999997E+01  0.137525872876819E+02
       0.358999999999997E+01  0.135551395653803E+02
       0.359999999999997E+01  0.134024215552466E+02
       0.360999999999997E+01  0.132919745259802E+02
       0.361999999999997E+01  0.132219812059854E+02
       0.362999999999997E+01  0.131912002622171E+02
       0.363999999999997E+01  0.131989193956033E+02
       0.364999999999997E+01  0.132449245444054E+02
       0.365999999999997E+01  0.133294834694547E+02
       0.366999999999997E+01  0.134533426695421E+02
       0.367999999999997E+01  0.136177371789293E+02
       0.368999999999997E+01  0.138244133667306E+02
       0.369999999999997E+01  0.140756654229639E+02
       0.370999999999996E+01  0.143743868116549E+02
       0.371999999999996E+01  0.147241386328923E+02
       0.372999999999996E+01  0.151292376029933E+02
       0.373999999999996E+01  0.155948672818432E+02
       0.374999999999996E+01  0.161272173060104E+02
       0.375999999999996E+01  0.167336567959787E+02
       0.376999999999996E+01  0.174229498836663E+02
       0.377999999999996E+01  0.182055235611674E+02
       0.378999999999996E+01  0.190938009154936E+02
       0.379999999999996E+01  0.201026164409753E+02
       0.380999999999996E+01  0.212497346761291E+02
       0.381999999999996E+01  0.225564990410013E+02
